 -0.275
 -0.265
 -0.255
 -0.265
 -0.255
 -0.255
 -0.265
 -0.255
 -0.230
 -0.230
 -0.245
 -0.255
 -0.260
 -0.240
 -0.230
 -0.225
 -0.225
 -0.225
 -0.230
 -0.225
 -0.220
 -0.210
 -0.230
 -0.250
 -0.255
 -0.250
 -0.235
 -0.240
 -0.240
 -0.260
 -0.270
 -0.255
 -0.245
 -0.255
 -0.265
 -0.275
 -0.270
 -0.270
 -0.255
 -0.255
 -0.270
 -0.280
 -0.280
 -0.270
 -0.260
 -0.260
 -0.255
 -0.285
 -0.285
 -0.270
 -0.265
 -0.255
 -0.265
 -0.260
 -0.270
 -0.265
 -0.265
 -0.265
 -0.280
 -0.310
 -0.335
 -0.345
 -0.350
 -0.375
 -0.360
 -0.315
 -0.220
 -0.090
  0.010
  0.125
  0.215
  0.315
  0.420
  0.525
  0.510
  0.350
  0.050
 -0.220
 -0.320
 -0.300
 -0.275
 -0.280
 -0.285
 -0.275
 -0.280
 -0.275
 -0.275
 -0.275
 -0.285
 -0.300
 -0.295
 -0.290
 -0.295
 -0.280
 -0.290
 -0.295
 -0.300
 -0.295
 -0.280
 -0.285
 -0.295
 -0.295
 -0.300
 -0.290
 -0.280
 -0.290
 -0.290
 -0.300
 -0.300
 -0.290
 -0.280
 -0.270
 -0.280
 -0.295
 -0.305
 -0.280
 -0.280
 -0.280
 -0.280
 -0.280
 -0.290
 -0.285
 -0.275
 -0.275
 -0.295
 -0.290
 -0.305
 -0.290
 -0.270
 -0.275
 -0.285
 -0.290
 -0.305
 -0.295
 -0.285
 -0.275
 -0.290
 -0.310
 -0.295
 -0.305
 -0.290
 -0.300
 -0.305
 -0.315
 -0.315
 -0.305
 -0.300
 -0.310
 -0.305
 -0.320
 -0.325
 -0.325
 -0.325
 -0.330
 -0.335
 -0.350
 -0.360
 -0.355
 -0.360
 -0.365
 -0.375
 -0.385
 -0.400
 -0.390
 -0.390
 -0.385
 -0.395
 -0.420
 -0.425
 -0.420
 -0.400
 -0.405
 -0.415
 -0.415
 -0.425
 -0.410
 -0.395
 -0.395
 -0.380
 -0.385
 -0.385
 -0.360
 -0.340
 -0.325
 -0.315
 -0.320
 -0.305
 -0.280
 -0.250
 -0.240
 -0.235
 -0.250
 -0.240
 -0.230
 -0.215
 -0.205
 -0.205
 -0.205
 -0.210
 -0.220
 -0.205
 -0.200
 -0.195
 -0.210
 -0.205
 -0.200
 -0.185
 -0.195
 -0.195
 -0.195
 -0.200
 -0.205
 -0.190
 -0.200
 -0.200
 -0.210
 -0.205
 -0.205
 -0.200
 -0.195
 -0.210
 -0.225
 -0.220
 -0.205
 -0.200
 -0.200
 -0.205
 -0.225
 -0.225
 -0.225
 -0.210
 -0.200
 -0.215
 -0.225
 -0.230
 -0.225
 -0.220
 -0.215
 -0.220
 -0.235
 -0.235
 -0.225
 -0.225
 -0.230
 -0.225
 -0.230
 -0.255
 -0.230
 -0.220
 -0.235
 -0.225
 -0.245
 -0.255
 -0.245
 -0.235
 -0.230
 -0.240
 -0.245
 -0.245
 -0.240
 -0.240
 -0.235
 -0.235
 -0.255
 -0.255
 -0.255
 -0.240
 -0.235
 -0.240
 -0.255
 -0.245
 -0.250
 -0.235
 -0.235
 -0.250
 -0.245
 -0.255
 -0.240
 -0.235
 -0.230
 -0.235
 -0.240
 -0.250
 -0.240
 -0.230
 -0.225
 -0.230
 -0.240
 -0.250
 -0.240
 -0.235
 -0.230
 -0.225
 -0.240
 -0.235
 -0.240
 -0.225
 -0.225
 -0.245
 -0.245
 -0.260
 -0.245
 -0.230
 -0.215
 -0.215
 -0.220
 -0.235
 -0.200
 -0.205
 -0.210
 -0.210
 -0.210
 -0.205
 -0.195
 -0.180
 -0.185
 -0.175
 -0.185
 -0.195
 -0.185
 -0.180
 -0.175
 -0.195
 -0.200
 -0.225
 -0.215
 -0.200
 -0.195
 -0.205
 -0.225
 -0.225
 -0.230
 -0.225
 -0.235
 -0.230
 -0.240
 -0.240
 -0.225
 -0.220
 -0.220
 -0.230
 -0.235
 -0.250
 -0.235
 -0.235
 -0.235
 -0.235
 -0.250
 -0.240
 -0.250
 -0.245
 -0.240
 -0.240
 -0.245
 -0.255
 -0.250
 -0.240
 -0.255
 -0.285
 -0.320
 -0.340
 -0.345
 -0.365
 -0.345
 -0.280
 -0.185
 -0.065
  0.045
  0.160
  0.275
  0.395
  0.480
  0.510
  0.415
  0.170
 -0.115
 -0.270
 -0.285
 -0.255
 -0.265
 -0.260
 -0.265
 -0.260
 -0.290
 -0.295
 -0.270
 -0.265
 -0.270
 -0.275
 -0.285
 -0.290
 -0.280
 -0.270
 -0.285
 -0.280
 -0.285
 -0.290
 -0.280
 -0.270
 -0.275
 -0.285
 -0.290
 -0.290
 -0.270
 -0.265
 -0.270
 -0.270
 -0.290
 -0.295
 -0.285
 -0.275
 -0.265
 -0.275
 -0.275
 -0.285
 -0.285
 -0.270
 -0.255
 -0.270
 -0.270
 -0.275
 -0.275
 -0.265
 -0.270
 -0.270
 -0.285
 -0.285
 -0.270
 -0.260
 -0.270
 -0.270
 -0.290
 -0.300
 -0.295
 -0.285
 -0.285
 -0.300
 -0.310
 -0.305
 -0.320
 -0.305
 -0.295
 -0.300
 -0.305
 -0.335
 -0.320
 -0.325
 -0.335
 -0.345
 -0.350
 -0.355
 -0.350
 -0.360
 -0.360
 -0.375
 -0.385
 -0.405
 -0.390
 -0.385
 -0.390
 -0.395
 -0.410
 -0.425
 -0.405
 -0.405
 -0.395
 -0.390
 -0.400
 -0.405
 -0.390
 -0.390
 -0.385
 -0.385
 -0.405
 -0.395
 -0.385
 -0.355
 -0.350
 -0.345
 -0.335
 -0.320
 -0.305
 -0.285
 -0.285
 -0.270
 -0.265
 -0.255
 -0.240
 -0.230
 -0.230
 -0.230
 -0.230
 -0.240
 -0.220
 -0.205
 -0.215
 -0.220
 -0.225
 -0.225
 -0.225
 -0.225
 -0.215
 -0.210
 -0.225
 -0.225
 -0.220
 -0.220
 -0.225
 -0.220
 -0.225
 -0.225
 -0.220
 -0.210
 -0.215
 -0.220
 -0.240
 -0.240
 -0.220
 -0.210
 -0.230
 -0.220
 -0.235
 -0.245
 -0.240
 -0.230
 -0.230
 -0.230
 -0.250
 -0.250
 -0.240
 -0.230
 -0.235
 -0.235
 -0.250
 -0.250
 -0.250
 -0.230
 -0.255
 -0.245
 -0.265
 -0.265
 -0.260
 -0.240
 -0.240
 -0.245
 -0.260
 -0.255
 -0.250
 -0.240
 -0.235
 -0.245
 -0.260
 -0.265
 -0.250
 -0.235
 -0.245
 -0.245
 -0.255
 -0.255
 -0.245
 -0.235
 -0.230
 -0.235
 -0.240
 -0.245
 -0.240
 -0.235
 -0.230
 -0.230
 -0.240
 -0.250
 -0.225
 -0.225
 -0.235
 -0.230
 -0.245
 -0.235
 -0.240
 -0.225
 -0.220
 -0.230
 -0.235
 -0.250
 -0.240
 -0.225
 -0.225
 -0.225
 -0.240
 -0.240
 -0.225
 -0.215
 -0.215
 -0.215
 -0.220
 -0.215
 -0.205
 -0.200
 -0.190
 -0.180
 -0.200
 -0.200
 -0.195
 -0.190
 -0.195
 -0.185
 -0.180
 -0.185
 -0.180
 -0.155
 -0.170
 -0.175
 -0.190
 -0.195
 -0.180
 -0.180
 -0.175
 -0.190
 -0.200
 -0.220
 -0.210
 -0.210
 -0.200
 -0.210
 -0.225
 -0.230
 -0.235
 -0.230
 -0.235
 -0.225
 -0.245
 -0.235
 -0.255
 -0.230
 -0.230
 -0.235
 -0.240
 -0.250
 -0.245
 -0.230
 -0.235
 -0.240
 -0.250
 -0.265
 -0.255
 -0.235
 -0.240
 -0.245
 -0.270
 -0.315
 -0.340
 -0.370
 -0.370
 -0.370
 -0.325
 -0.240
 -0.125
 -0.040
  0.040
  0.135
  0.220
  0.310
  0.395
  0.385
  0.230
 -0.040
 -0.295
 -0.370
 -0.325
 -0.275
 -0.280
 -0.285
 -0.285
 -0.280
 -0.255
 -0.260
 -0.270
 -0.265
 -0.295
 -0.295
 -0.285
 -0.265
 -0.280
 -0.270
 -0.290
 -0.285
 -0.275
 -0.270
 -0.270
 -0.280
 -0.300
 -0.290
 -0.290
 -0.260
 -0.270
 -0.270
 -0.280
 -0.290
 -0.285
 -0.280
 -0.275
 -0.270
 -0.285
 -0.290
 -0.285
 -0.275
 -0.270
 -0.275
 -0.290
 -0.285
 -0.280
 -0.280
 -0.265
 -0.265
 -0.285
 -0.295
 -0.285
 -0.280
 -0.270
 -0.280
 -0.285
 -0.300
 -0.295
 -0.285
 -0.300
 -0.285
 -0.300
 -0.315
 -0.310
 -0.305
 -0.295
 -0.305
 -0.320
 -0.330
 -0.330
 -0.300
 -0.305
 -0.315
 -0.325
 -0.335
 -0.320
 -0.340
 -0.335
 -0.360
 -0.350
 -0.355
 -0.355
 -0.355
 -0.365
 -0.385
 -0.395
 -0.400
 -0.410
 -0.390
 -0.390
 -0.405
 -0.405
 -0.430
 -0.415
 -0.405
 -0.400
 -0.395
 -0.410
 -0.410
 -0.395
 -0.385
 -0.370
 -0.350
 -0.340
 -0.340
 -0.320
 -0.305
 -0.300
 -0.295
 -0.290
 -0.295
 -0.290
 -0.270
 -0.250
 -0.265
 -0.270
 -0.275
 -0.265
 -0.240
 -0.245
 -0.255
 -0.255
 -0.260
 -0.260
 -0.255
 -0.255
 -0.255
 -0.255
 -0.260
 -0.255
 -0.245
 -0.250
 -0.255
 -0.260
 -0.270
 -0.265
 -0.265
 -0.265
 -0.260
 -0.280
 -0.275
 -0.260
 -0.245
 -0.250
 -0.265
 -0.270
 -0.275
 -0.270
 -0.260
 -0.265
 -0.260
 -0.280
 -0.285
 -0.285
 -0.275
 -0.285
 -0.280
 -0.290
 -0.310
 -0.295
 -0.285
 -0.280
 -0.275
 -0.300
 -0.300
 -0.305
 -0.300
 -0.295
 -0.290
 -0.310
 -0.305
 -0.310
 -0.300
 -0.310
 -0.315
 -0.325
 -0.330
 -0.315
 -0.300
 -0.290
 -0.305
 -0.305
 -0.310
 -0.315
 -0.320
 -0.315
 -0.315
 -0.305
 -0.305
 -0.310
 -0.300
 -0.305
 -0.300
 -0.305
 -0.310
 -0.320
 -0.305
 -0.310
 -0.305
 -0.335
 -0.340
 -0.330
 -0.305
 -0.305
 -0.310
 -0.305
 -0.320
 -0.310
 -0.320
 -0.310
 -0.320
 -0.330
 -0.325
 -0.310
 -0.300
 -0.290
 -0.300
 -0.320
 -0.315
 -0.295
 -0.290
 -0.280
 -0.285
 -0.295
 -0.300
 -0.295
 -0.275
 -0.275
 -0.280
 -0.290
 -0.295
 -0.290
 -0.285
 -0.300
 -0.300
 -0.315
 -0.320
 -0.315
 -0.300
 -0.300
 -0.315
 -0.320
 -0.350
 -0.345
 -0.330
 -0.335
 -0.330
 -0.350
 -0.360
 -0.340
 -0.330
 -0.340
 -0.330
 -0.350
 -0.355
 -0.340
 -0.335
 -0.330
 -0.345
 -0.355
 -0.355
 -0.340
 -0.330
 -0.335
 -0.325
 -0.335
 -0.350
 -0.345
 -0.350
 -0.360
 -0.380
 -0.410
 -0.445
 -0.445
 -0.435
 -0.390
 -0.320
 -0.225
 -0.150
 -0.085
  0.005
  0.105
  0.210
  0.295
  0.260
  0.085
 -0.185
 -0.395
 -0.460
 -0.455
 -0.420
 -0.400
 -0.385
 -0.385
 -0.385
 -0.385
 -0.390
 -0.380
 -0.365
 -0.375
 -0.365
 -0.380
 -0.385
 -0.380
 -0.350
 -0.345
 -0.355
 -0.370
 -0.390
 -0.385
 -0.370
 -0.360
 -0.355
 -0.370
 -0.370
 -0.360
 -0.365
 -0.360
 -0.360
 -0.365
 -0.375
 -0.370
 -0.355
 -0.345
 -0.360
 -0.365
 -0.380
 -0.360
 -0.360
 -0.345
 -0.355
 -0.365
 -0.380
 -0.375
 -0.365
 -0.360
 -0.355
 -0.350
 -0.370
 -0.355
 -0.360
 -0.360
 -0.365
 -0.360
 -0.375
 -0.370
 -0.365
 -0.355
 -0.370
 -0.375
 -0.390
 -0.385
 -0.370
 -0.370
 -0.380
 -0.410
 -0.410
 -0.405
 -0.420
 -0.400
 -0.410
 -0.430
 -0.440
 -0.445
 -0.440
 -0.435
 -0.445
 -0.465
 -0.475
 -0.475
 -0.475
 -0.475
 -0.490
 -0.500
 -0.505
 -0.495
 -0.485
 -0.470
 -0.480
 -0.495
 -0.490
 -0.470
 -0.445
 -0.445
 -0.435
 -0.440
 -0.435
 -0.415
 -0.400
 -0.385
 -0.400
 -0.395
 -0.390
 -0.365
 -0.350
 -0.330
 -0.310
 -0.320
 -0.325
 -0.310
 -0.300
 -0.290
 -0.285
 -0.305
 -0.315
 -0.295
 -0.295
 -0.290
 -0.295
 -0.290
 -0.300
 -0.295
 -0.295
 -0.290
 -0.295
 -0.300
 -0.300
 -0.305
 -0.285
 -0.290
 -0.305
 -0.305
 -0.310
 -0.295
 -0.300
 -0.300
 -0.305
 -0.310
 -0.320
 -0.305
 -0.290
 -0.305
 -0.300
 -0.305
 -0.320
 -0.315
 -0.310
 -0.295
 -0.310
 -0.320
 -0.315
 -0.315
 -0.315
 -0.305
 -0.305
 -0.320
 -0.320
 -0.320
 -0.300
 -0.295
 -0.310
 -0.320
 -0.330
 -0.325
 -0.305
 -0.310
 -0.305
 -0.315
 -0.320
 -0.315
 -0.310
 -0.295
 -0.295
 -0.315
 -0.300
 -0.300
 -0.300
 -0.295
 -0.305
 -0.305
 -0.310
 -0.295
 -0.280
 -0.285
 -0.290
 -0.315
 -0.295
 -0.295
 -0.285
 -0.285
 -0.290
 -0.295
 -0.305
 -0.300
 -0.285
 -0.285
 -0.285
 -0.300
 -0.310
 -0.305
 -0.295
 -0.280
 -0.290
 -0.285
 -0.280
 -0.270
 -0.260
 -0.255
 -0.260
 -0.265
 -0.270
 -0.260
 -0.250
 -0.240
 -0.240
 -0.250
 -0.250
 -0.235
 -0.220
 -0.225
 -0.230
 -0.240
 -0.235
 -0.235
 -0.230
 -0.235
 -0.255
 -0.250
 -0.260
 -0.260
 -0.255
 -0.250
 -0.270
 -0.285
 -0.290
 -0.290
 -0.275
 -0.265
 -0.280
 -0.285
 -0.290
 -0.285
 -0.280
 -0.280
 -0.280
 -0.290
 -0.295
 -0.300
 -0.280
 -0.275
 -0.280
 -0.295
 -0.295
 -0.295
 -0.285
 -0.295
 -0.310
 -0.355
 -0.375
 -0.385
 -0.410
 -0.405
 -0.375
 -0.295
 -0.195
 -0.080
  0.015
  0.075
  0.125
  0.205
  0.280
  0.360
  0.450
  0.545
  0.620
  0.640
  0.550
  0.290
 -0.040
 -0.260
 -0.315
 -0.310
 -0.310
 -0.310
 -0.295
 -0.300
 -0.300
 -0.300
 -0.325
 -0.315
 -0.305
 -0.310
 -0.310
 -0.330
 -0.325
 -0.325
 -0.315
 -0.300
 -0.310
 -0.310
 -0.315
 -0.320
 -0.300
 -0.290
 -0.310
 -0.305
 -0.315
 -0.310
 -0.305
 -0.305
 -0.300
 -0.310
 -0.320
 -0.305
 -0.305
 -0.300
 -0.300
 -0.305
 -0.310
 -0.300
 -0.295
 -0.295
 -0.300
 -0.310
 -0.315
 -0.305
 -0.300
 -0.295
 -0.305
 -0.315
 -0.325
 -0.310
 -0.305
 -0.310
 -0.315
 -0.315
 -0.325
 -0.325
 -0.320
 -0.315
 -0.325
 -0.335
 -0.340
 -0.345
 -0.335
 -0.335
 -0.345
 -0.355
 -0.365
 -0.365
 -0.370
 -0.370
 -0.375
 -0.400
 -0.410
 -0.415
 -0.410
 -0.420
 -0.415
 -0.435
 -0.440
 -0.445
 -0.435
 -0.435
 -0.445
 -0.460
 -0.455
 -0.440
 -0.415
 -0.425
 -0.415
 -0.425
 -0.415
 -0.400
 -0.360
 -0.355
 -0.335
 -0.335
 -0.335
 -0.315
 -0.295
 -0.280
 -0.270
 -0.265
 -0.275
 -0.260
 -0.250
 -0.235
 -0.250
 -0.260
 -0.255
 -0.245
 -0.240
 -0.230
 -0.235
 -0.245
 -0.255
 -0.250
 -0.235
 -0.235
 -0.240
 -0.245
 -0.250
 -0.255
 -0.245
 -0.240
 -0.235
 -0.250
 -0.250
 -0.250
 -0.245
 -0.245
 -0.250
 -0.255
 -0.265
 -0.260
 -0.245
 -0.250
 -0.250
 -0.270
 -0.270
 -0.265
 -0.260
 -0.245
 -0.255
 -0.275
 -0.280
 -0.285
 -0.275
 -0.265
 -0.265
 -0.280
 -0.285
 -0.290
 -0.280
 -0.275
 -0.280
 -0.280
 -0.280
 -0.275
 -0.270
 -0.265
 -0.265
 -0.285
 -0.285
 -0.290
 -0.275
 -0.270
 -0.275
 -0.280
 -0.285
 -0.285
 -0.275
 -0.265
 -0.280
 -0.280
 -0.270
 -0.280
 -0.275
 -0.270
 -0.270
 -0.270
 -0.280
 -0.275
 -0.255
 -0.265
 -0.270
 -0.280
 -0.285
 -0.270
 -0.270
 -0.255
 -0.255
 -0.265
 -0.285
 -0.275
 -0.265
 -0.260
 -0.270
 -0.275
 -0.280
 -0.275
 -0.255
 -0.250
 -0.250
 -0.250
 -0.245
 -0.240
 -0.235
 -0.225
 -0.215
 -0.230
 -0.240
 -0.225
 -0.215
 -0.210
 -0.200
 -0.200
 -0.205
 -0.205
 -0.200
 -0.190
 -0.210
 -0.200
 -0.215
 -0.210
 -0.205
 -0.205
 -0.215
 -0.240
 -0.240
 -0.240
 -0.225
 -0.235
 -0.240
 -0.255
 -0.250
 -0.260
 -0.260
 -0.235
 -0.240
 -0.260
 -0.270
 -0.265
 -0.255
 -0.245
 -0.250
 -0.255
 -0.265
 -0.255
 -0.250
 -0.250
 -0.260
 -0.260
 -0.270
 -0.265
 -0.280
 -0.305
 -0.325
 -0.365
 -0.400
 -0.415
 -0.345
 -0.275
 -0.145
 -0.030
  0.055
  0.185
  0.315
  0.435
  0.555
  0.600
  0.485
  0.215
 -0.095
 -0.280
 -0.315
 -0.300
 -0.305
 -0.290
 -0.290
 -0.275
 -0.270
 -0.290
 -0.300
 -0.310
 -0.300
 -0.285
 -0.290
 -0.295
 -0.305
 -0.295
 -0.295
 -0.300
 -0.295
 -0.295
 -0.305
 -0.295
 -0.280
 -0.280
 -0.290
 -0.290
 -0.295
 -0.290
 -0.280
 -0.270
 -0.280
 -0.295
 -0.295
 -0.290
 -0.270
 -0.275
 -0.255
 -0.280
 -0.290
 -0.285
 -0.280
 -0.280
 -0.265
 -0.270
 -0.280
 -0.280
 -0.275
 -0.275
 -0.285
 -0.280
 -0.290
 -0.280
 -0.270
 -0.275
 -0.285
 -0.295
 -0.310
 -0.290
 -0.295
 -0.270
 -0.285
 -0.295
 -0.305
 -0.310
 -0.290
 -0.295
 -0.310
 -0.315
 -0.320
 -0.320
 -0.305
 -0.310
 -0.315
 -0.335
 -0.355
 -0.340
 -0.340
 -0.335
 -0.340
 -0.360
 -0.385
 -0.380
 -0.380
 -0.375
 -0.385
 -0.390
 -0.405
 -0.400
 -0.410
 -0.395
 -0.395
 -0.410
 -0.420
 -0.405
 -0.390
 -0.390
 -0.375
 -0.380
 -0.375
 -0.360
 -0.325
 -0.325
 -0.305
 -0.300
 -0.300
 -0.290
 -0.265
 -0.250
 -0.245
 -0.245
 -0.250
 -0.235
 -0.215
 -0.220
 -0.210
 -0.225
 -0.215
 -0.225
 -0.200
 -0.185
 -0.200
 -0.215
 -0.220
 -0.215
 -0.205
 -0.205
 -0.205
 -0.210
 -0.225
 -0.210
 -0.200
 -0.205
 -0.210
 -0.215
 -0.230
 -0.225
 -0.210
 -0.215
 -0.210
 -0.235
 -0.230
 -0.235
 -0.230
 -0.215
 -0.225
 -0.230
 -0.245
 -0.225
 -0.220
 -0.225
 -0.225
 -0.230
 -0.235
 -0.225
 -0.220
 -0.230
 -0.230
 -0.240
 -0.250
 -0.235
 -0.235
 -0.235
 -0.230
 -0.240
 -0.255
 -0.250
 -0.230
 -0.215
 -0.225
 -0.240
 -0.245
 -0.255
 -0.240
 -0.230
 -0.235
 -0.235
 -0.240
 -0.245
 -0.220
 -0.215
 -0.230
 -0.250
 -0.245
 -0.250
 -0.230
 -0.230
 -0.220
 -0.230
 -0.245
 -0.240
 -0.230
 -0.215
 -0.225
 -0.235
 -0.250
 -0.230
 -0.215
 -0.205
 -0.220
 -0.220
 -0.230
 -0.225
 -0.215
 -0.210
 -0.200
 -0.220
 -0.230
 -0.220
 -0.210
 -0.220
 -0.205
 -0.215
 -0.220
 -0.215
 -0.215
 -0.195
 -0.195
 -0.215
 -0.205
 -0.195
 -0.190
 -0.180
 -0.170
 -0.180
 -0.180
 -0.180
 -0.160
 -0.160
 -0.155
 -0.170
 -0.160
 -0.150
 -0.135
 -0.130
 -0.135
 -0.145
 -0.150
 -0.140
 -0.135
 -0.135
 -0.150
 -0.165
 -0.170
 -0.175
 -0.175
 -0.175
 -0.175
 -0.170
 -0.180
 -0.185
 -0.170
 -0.175
 -0.195
 -0.215
 -0.220
 -0.210
 -0.195
 -0.190
 -0.200
 -0.205
 -0.220
 -0.205
 -0.210
 -0.210
 -0.210
 -0.215
 -0.225
 -0.210
 -0.215
 -0.200
 -0.210
 -0.230
 -0.225
 -0.225
 -0.210
 -0.210
 -0.245
 -0.275
 -0.295
 -0.315
 -0.335
 -0.355
 -0.325
 -0.285
 -0.210
 -0.100
 -0.005
  0.070
  0.165
  0.250
  0.345
  0.455
  0.490
  0.385
  0.120
 -0.155
 -0.310
 -0.315
 -0.275
 -0.250
 -0.250
 -0.260
 -0.255
 -0.240
 -0.245
 -0.250
 -0.250
 -0.245
 -0.250
 -0.240
 -0.230
 -0.225
 -0.235
 -0.245
 -0.255
 -0.250
 -0.240
 -0.240
 -0.245
 -0.245
 -0.260
 -0.255
 -0.230
 -0.240
 -0.245
 -0.250
 -0.250
 -0.245
 -0.245
 -0.240
 -0.255
 -0.255
 -0.270
 -0.255
 -0.245
 -0.235
 -0.230
 -0.250
 -0.260
 -0.255
 -0.245
 -0.235
 -0.235
 -0.245
 -0.250
 -0.245
 -0.240
 -0.240
 -0.245
 -0.240
 -0.260
 -0.240
 -0.235
 -0.235
 -0.235
 -0.250
 -0.260
 -0.255
 -0.255
 -0.240
 -0.245
 -0.255
 -0.260
 -0.265
 -0.265
 -0.245
 -0.265
 -0.270
 -0.295
 -0.275
 -0.270
 -0.260
 -0.265
 -0.280
 -0.290
 -0.295
 -0.290
 -0.285
 -0.285
 -0.285
 -0.290
 -0.265
 -0.260
 -0.260
 -0.270
 -0.295
 -0.320
 -0.315
 -0.305
 -0.305
 -0.300
 -0.315
 -0.320
 -0.335
 -0.335
 -0.320
 -0.325
 -0.335
 -0.330
 -0.330
 -0.310
 -0.310
 -0.320
 -0.330
 -0.335
 -0.315
 -0.300
 -0.285
 -0.270
 -0.280
 -0.280
 -0.275
 -0.255
 -0.230
 -0.235
 -0.240
 -0.230
 -0.225
 -0.210
 -0.200
 -0.205
 -0.215
 -0.220
 -0.205
 -0.200
 -0.185
 -0.200
 -0.215
 -0.220
 -0.225
 -0.205
 -0.200
 -0.205
 -0.205
 -0.210
 -0.220
 -0.195
 -0.200
 -0.195
 -0.215
 -0.225
 -0.215
 -0.195
 -0.200
 -0.210
 -0.215
 -0.220
 -0.220
 -0.215
 -0.220
 -0.215
 -0.220
 -0.225
 -0.225
 -0.215
 -0.210
 -0.210
 -0.220
 -0.225
 -0.220
 -0.205
 -0.200
 -0.220
 -0.210
 -0.235
 -0.240
 -0.240
 -0.245
 -0.260
 -0.270
 -0.275
 -0.250
 -0.150
 -0.010
  0.150
  0.270
  0.345
  0.430
  0.525
  0.605
  0.595
  0.395
  0.005
 -0.320
 -0.455
 -0.415
 -0.330
 -0.265
 -0.255
 -0.250
 -0.250
 -0.225
 -0.220
 -0.230
 -0.225
 -0.225
 -0.210
 -0.210
 -0.205
 -0.225
 -0.230
 -0.225
 -0.215
 -0.200
 -0.205
 -0.220
 -0.210
 -0.210
 -0.205
 -0.200
 -0.215
 -0.215
 -0.230
 -0.220
 -0.210
 -0.215
 -0.215
 -0.225
 -0.225
 -0.205
 -0.205
 -0.190
 -0.185
 -0.210
 -0.230
 -0.225
 -0.215
 -0.200
 -0.195
 -0.190
 -0.210
 -0.205
 -0.210
 -0.200
 -0.205
 -0.200
 -0.205
 -0.200
 -0.205
 -0.190
 -0.190
 -0.210
 -0.225
 -0.220
 -0.200
 -0.205
 -0.215
 -0.220
 -0.245
 -0.230
 -0.230
 -0.215
 -0.220
 -0.245
 -0.245
 -0.260
 -0.250
 -0.255
 -0.255
 -0.265
 -0.270
 -0.275
 -0.285
 -0.280
 -0.295
 -0.310
 -0.345
 -0.345
 -0.345
 -0.350
 -0.355
 -0.365
 -0.370
 -0.385
 -0.375
 -0.375
 -0.380
 -0.400
 -0.415
 -0.395
 -0.390
 -0.385
 -0.370
 -0.375
 -0.380
 -0.365
 -0.335
 -0.315
 -0.310
 -0.310
 -0.305
 -0.300
 -0.295
 -0.285
 -0.265
 -0.260
 -0.270
 -0.245
 -0.235
 -0.225
 -0.220
 -0.240
 -0.245
 -0.215
 -0.215
 -0.210
 -0.215
 -0.225
 -0.235
 -0.225
 -0.220
 -0.210
 -0.205
 -0.210
 -0.215
 -0.210
 -0.205
 -0.195
 -0.210
 -0.210
 -0.220
 -0.210
 -0.200
 -0.195
 -0.215
 -0.210
 -0.215
 -0.210
 -0.205
 -0.210
 -0.215
 -0.215
 -0.230
 -0.210
 -0.200
 -0.205
 -0.200
 -0.205
 -0.225
 -0.215
 -0.215
 -0.200
 -0.200
 -0.210
 -0.220
 -0.230
 -0.225
 -0.205
 -0.210
 -0.210
 -0.230
 -0.220
 -0.210
 -0.205
 -0.210
 -0.215
 -0.235
 -0.215
 -0.205
 -0.205
 -0.210
 -0.220
 -0.240
 -0.225
 -0.210
 -0.195
 -0.195
 -0.210
 -0.230
 -0.220
 -0.210
 -0.210
 -0.200
 -0.215
 -0.220
 -0.210
 -0.215
 -0.205
 -0.210
 -0.220
 -0.225
 -0.215
 -0.210
 -0.185
 -0.200
 -0.195
 -0.215
 -0.210
 -0.210
 -0.200
 -0.205
 -0.225
 -0.225
 -0.210
 -0.200
 -0.205
 -0.210
 -0.215
 -0.215
 -0.205
 -0.200
 -0.190
 -0.190
 -0.205
 -0.210
 -0.200
 -0.195
 -0.190
 -0.190
 -0.205
 -0.200
 -0.190
 -0.200
 -0.185
 -0.185
 -0.200
 -0.195
 -0.190
 -0.180
 -0.175
 -0.180
 -0.190
 -0.200
 -0.185
 -0.175
 -0.165
 -0.180
 -0.180
 -0.200
 -0.195
 -0.185
 -0.170
 -0.185
 -0.175
 -0.180
 -0.175
 -0.175
 -0.180
 -0.180
 -0.190
 -0.195
 -0.175
 -0.165
 -0.150
 -0.155
 -0.155
 -0.165
 -0.160
 -0.140
 -0.125
 -0.140
 -0.140
 -0.150
 -0.145
 -0.130
 -0.125
 -0.125
 -0.130
 -0.140
 -0.135
 -0.120
 -0.105
 -0.110
 -0.105
 -0.135
 -0.130
 -0.115
 -0.130
 -0.130
 -0.145
 -0.150
 -0.150
 -0.140
 -0.140
 -0.150
 -0.150
 -0.165
 -0.160
 -0.160
 -0.150
 -0.155
 -0.175
 -0.185
 -0.175
 -0.165
 -0.160
 -0.155
 -0.160
 -0.170
 -0.170
 -0.160
 -0.160
 -0.160
 -0.165
 -0.165
 -0.165
 -0.160
 -0.150
 -0.150
 -0.165
 -0.180
 -0.180
 -0.210
 -0.200
 -0.225
 -0.255
 -0.280
 -0.290
 -0.280
 -0.220
 -0.110
 -0.020
  0.075
  0.165
  0.255
  0.350
  0.480
  0.580
  0.635
  0.535
  0.270
 -0.035
 -0.240
 -0.285
 -0.245
 -0.220
 -0.205
 -0.195
 -0.190
 -0.190
 -0.190
 -0.190
 -0.195
 -0.185
 -0.190
 -0.205
 -0.210
 -0.200
 -0.185
 -0.180
 -0.185
 -0.190
 -0.200
 -0.205
 -0.190
 -0.185
 -0.175
 -0.180
 -0.195
 -0.195
 -0.190
 -0.170
 -0.180
 -0.190
 -0.190
 -0.180
 -0.175
 -0.175
 -0.185
 -0.185
 -0.195
 -0.190
 -0.185
 -0.180
 -0.175
 -0.185
 -0.190
 -0.200
 -0.180
 -0.180
 -0.180
 -0.185
 -0.195
 -0.185
 -0.180
 -0.185
 -0.180
 -0.200
 -0.205
 -0.205
 -0.195
 -0.185
 -0.195
 -0.210
 -0.220
 -0.215
 -0.215
 -0.200
 -0.205
 -0.220
 -0.220
 -0.235
 -0.240
 -0.230
 -0.245
 -0.240
 -0.255
 -0.245
 -0.250
 -0.240
 -0.270
 -0.275
 -0.290
 -0.280
 -0.290
 -0.285
 -0.290
 -0.305
 -0.315
 -0.310
 -0.330
 -0.320
 -0.330
 -0.340
 -0.345
 -0.355
 -0.335
 -0.335
 -0.340
 -0.335
 -0.330
 -0.310
 -0.295
 -0.280
 -0.260
 -0.265
 -0.265
 -0.240
 -0.220
 -0.185
 -0.185
 -0.175
 -0.175
 -0.170
 -0.160
 -0.130
 -0.125
 -0.130
 -0.145
 -0.145
 -0.120
 -0.120
 -0.115
 -0.115
 -0.130
 -0.120
 -0.100
 -0.105
 -0.105
 -0.120
 -0.135
 -0.120
 -0.120
 -0.105
 -0.110
 -0.115
 -0.120
 -0.120
 -0.115
 -0.110
 -0.120
 -0.130
 -0.135
 -0.130
 -0.120
 -0.100
 -0.120
 -0.135
 -0.150
 -0.140
 -0.140
 -0.120
 -0.120
 -0.150
 -0.155
 -0.150
 -0.150
 -0.140
 -0.135
 -0.150
 -0.160
 -0.160
 -0.160
 -0.160
 -0.150
 -0.155
 -0.160
 -0.160
 -0.155
 -0.145
 -0.150
 -0.165
 -0.170
 -0.180
 -0.165
 -0.165
 -0.165
 -0.165
 -0.170
 -0.170
 -0.160
 -0.160
 -0.170
 -0.175
 -0.170
 -0.175
 -0.160
 -0.155
 -0.170
 -0.180
 -0.180
 -0.175
 -0.155
 -0.170
 -0.160
 -0.170
 -0.180
 -0.170
 -0.170
 -0.165
 -0.160
 -0.180
 -0.180
 -0.165
 -0.175
 -0.165
 -0.160
 -0.180
 -0.180
 -0.160
 -0.160
 -0.150
 -0.150
 -0.180
 -0.175
 -0.185
 -0.170
 -0.165
 -0.165
 -0.165
 -0.180
 -0.180
 -0.170
 -0.165
 -0.170
 -0.170
 -0.175
 -0.155
 -0.160
 -0.130
 -0.140
 -0.145
 -0.150
 -0.135
 -0.120
 -0.120
 -0.115
 -0.125
 -0.140
 -0.145
 -0.130
 -0.115
 -0.115
 -0.120
 -0.125
 -0.115
 -0.095
 -0.090
 -0.110
 -0.125
 -0.130
 -0.125
 -0.130
 -0.130
 -0.135
 -0.135
 -0.135
 -0.155
 -0.140
 -0.155
 -0.155
 -0.160
 -0.155
 -0.170
 -0.155
 -0.160
 -0.170
 -0.175
 -0.180
 -0.180
 -0.170
 -0.160
 -0.170
 -0.170
 -0.185
 -0.190
 -0.175
 -0.170
 -0.160
 -0.190
 -0.190
 -0.180
 -0.175
 -0.185
 -0.200
 -0.235
 -0.265
 -0.285
 -0.310
 -0.320
 -0.300
 -0.225
 -0.120
 -0.005
  0.110
  0.170
  0.235
  0.290
  0.390
  0.510
  0.615
  0.715
  0.740
  0.640
  0.380
  0.040
 -0.195
 -0.265
 -0.250
 -0.210
 -0.240
 -0.230
 -0.210
 -0.200
 -0.200
 -0.225
 -0.235
 -0.235
 -0.230
 -0.215
 -0.210
 -0.220
 -0.240
 -0.225
 -0.225
 -0.230
 -0.220
 -0.230
 -0.225
 -0.235
 -0.210
 -0.200
 -0.215
 -0.225
 -0.240
 -0.225
 -0.220
 -0.210
 -0.215
 -0.235
 -0.240
 -0.240
 -0.220
 -0.210
 -0.205
 -0.220
 -0.225
 -0.230
 -0.220
 -0.215
 -0.225
 -0.230
 -0.235
 -0.220
 -0.220
 -0.210
 -0.210
 -0.250
 -0.235
 -0.240
 -0.240
 -0.230
 -0.225
 -0.235
 -0.250
 -0.245
 -0.245
 -0.245
 -0.245
 -0.255
 -0.265
 -0.275
 -0.265
 -0.275
 -0.275
 -0.285
 -0.295
 -0.305
 -0.300
 -0.300
 -0.305
 -0.310
 -0.325
 -0.335
 -0.330
 -0.325
 -0.335
 -0.345
 -0.355
 -0.370
 -0.360
 -0.355
 -0.360
 -0.360
 -0.370
 -0.375
 -0.365
 -0.350
 -0.355
 -0.355
 -0.355
 -0.340
 -0.315
 -0.300
 -0.295
 -0.285
 -0.285
 -0.260
 -0.240
 -0.230
 -0.210
 -0.220
 -0.225
 -0.205
 -0.195
 -0.195
 -0.190
 -0.185
 -0.200
 -0.190
 -0.185
 -0.170
 -0.170
 -0.195
 -0.190
 -0.190
 -0.180
 -0.185
 -0.180
 -0.180
 -0.190
 -0.190
 -0.185
 -0.190
 -0.180
 -0.190
 -0.185
 -0.190
 -0.195
 -0.180
 -0.190
 -0.195
 -0.205
 -0.205
 -0.195
 -0.195
 -0.195
 -0.200
 -0.210
 -0.210
 -0.200
 -0.185
 -0.195
 -0.215
 -0.225
 -0.230
 -0.220
 -0.215
 -0.210
 -0.220
 -0.220
 -0.215
 -0.220
 -0.215
 -0.215
 -0.225
 -0.225
 -0.225
 -0.220
 -0.225
 -0.220
 -0.235
 -0.240
 -0.230
 -0.220
 -0.210
 -0.225
 -0.230
 -0.230
 -0.235
 -0.225
 -0.215
 -0.230
 -0.225
 -0.250
 -0.235
 -0.220
 -0.210
 -0.205
 -0.230
 -0.235
 -0.225
 -0.225
 -0.215
 -0.210
 -0.215
 -0.225
 -0.220
 -0.210
 -0.215
 -0.220
 -0.215
 -0.215
 -0.220
 -0.225
 -0.200
 -0.215
 -0.215
 -0.215
 -0.210
 -0.200
 -0.205
 -0.200
 -0.220
 -0.225
 -0.215
 -0.190
 -0.195
 -0.205
 -0.210
 -0.220
 -0.215
 -0.220
 -0.210
 -0.205
 -0.200
 -0.210
 -0.205
 -0.195
 -0.180
 -0.180
 -0.190
 -0.190
 -0.195
 -0.175
 -0.175
 -0.185
 -0.185
 -0.175
 -0.175
 -0.155
 -0.155
 -0.170
 -0.185
 -0.175
 -0.180
 -0.165
 -0.165
 -0.175
 -0.200
 -0.205
 -0.200
 -0.195
 -0.190
 -0.195
 -0.220
 -0.220
 -0.220
 -0.230
 -0.210
 -0.215
 -0.220
 -0.235
 -0.235
 -0.230
 -0.225
 -0.225
 -0.225
 -0.240
 -0.230
 -0.220
 -0.210
 -0.230
 -0.245
 -0.250
 -0.245
 -0.240
 -0.240
 -0.255
 -0.295
 -0.335
 -0.345
 -0.360
 -0.380
 -0.390
 -0.370
 -0.320
 -0.235
 -0.135
 -0.065
  0.005
  0.060
  0.145
  0.250
  0.340
  0.440
  0.490
  0.400
  0.150
 -0.150
 -0.305
 -0.325
 -0.290
 -0.280
 -0.290
 -0.290
 -0.280
 -0.275
 -0.270
 -0.290
 -0.295
 -0.295
 -0.285
 -0.285
 -0.280
 -0.290
 -0.300
 -0.290
 -0.275
 -0.280
 -0.280
 -0.290
 -0.300
 -0.305
 -0.295
 -0.280
 -0.290
 -0.300
 -0.300
 -0.305
 -0.295
 -0.290
 -0.280
 -0.305
 -0.305
 -0.290
 -0.285
 -0.295
 -0.295
 -0.305
 -0.295
 -0.300
 -0.285
 -0.290
 -0.305
 -0.305
 -0.315
 -0.315
 -0.295
 -0.300
 -0.300
 -0.310
 -0.320
 -0.305
 -0.300
 -0.305
 -0.300
 -0.305
 -0.320
 -0.320
 -0.315
 -0.330
 -0.325
 -0.335
 -0.345
 -0.350
 -0.345
 -0.350
 -0.360
 -0.360
 -0.370
 -0.380
 -0.370
 -0.365
 -0.375
 -0.390
 -0.410
 -0.410
 -0.405
 -0.420
 -0.415
 -0.420
 -0.435
 -0.440
 -0.440
 -0.435
 -0.440
 -0.430
 -0.445
 -0.445
 -0.445
 -0.435
 -0.430
 -0.430
 -0.430
 -0.425
 -0.395
 -0.380
 -0.360
 -0.355
 -0.345
 -0.330
 -0.315
 -0.305
 -0.300
 -0.300
 -0.295
 -0.295
 -0.285
 -0.265
 -0.275
 -0.275
 -0.280
 -0.280
 -0.275
 -0.265
 -0.270
 -0.275
 -0.290
 -0.290
 -0.265
 -0.260
 -0.265
 -0.270
 -0.285
 -0.290
 -0.275
 -0.255
 -0.265
 -0.285
 -0.295
 -0.295
 -0.285
 -0.270
 -0.280
 -0.290
 -0.305
 -0.290
 -0.295
 -0.285
 -0.300
 -0.300
 -0.310
 -0.295
 -0.285
 -0.280
 -0.290
 -0.305
 -0.320
 -0.325
 -0.315
 -0.305
 -0.305
 -0.310
 -0.320
 -0.330
 -0.330
 -0.325
 -0.330
 -0.315
 -0.315
 -0.325
 -0.310
 -0.310
 -0.305
 -0.315
 -0.325
 -0.340
 -0.320
 -0.320
 -0.330
 -0.335
 -0.340
 -0.325
 -0.320
 -0.305
 -0.310
 -0.315
 -0.335
 -0.330
 -0.325
 -0.310
 -0.315
 -0.330
 -0.335
 -0.335
 -0.330
 -0.315
 -0.320
 -0.330
 -0.325
 -0.330
 -0.320
 -0.315
 -0.325
 -0.330
 -0.345
 -0.340
 -0.340
 -0.320
 -0.325
 -0.335
 -0.340
 -0.340
 -0.315
 -0.310
 -0.310
 -0.305
 -0.300
 -0.300
 -0.290
 -0.285
 -0.280
 -0.295
 -0.300
 -0.300
 -0.290
 -0.280
 -0.280
 -0.290
 -0.280
 -0.290
 -0.280
 -0.280
 -0.280
 -0.280
 -0.295
 -0.295
 -0.285
 -0.280
 -0.300
 -0.325
 -0.320
 -0.325
 -0.305
 -0.300
 -0.315
 -0.335
 -0.350
 -0.345
 -0.340
 -0.325
 -0.335
 -0.340
 -0.345
 -0.355
 -0.355
 -0.340
 -0.350
 -0.355
 -0.350
 -0.350
 -0.345
 -0.325
 -0.340
 -0.350
 -0.365
 -0.355
 -0.350
 -0.340
 -0.360
 -0.380
 -0.425
 -0.430
 -0.450
 -0.440
 -0.440
 -0.375
 -0.290
 -0.180
 -0.095
 -0.010
  0.070
  0.175
  0.290
  0.375
  0.345
  0.140
 -0.175
 -0.430
 -0.515
 -0.495
 -0.435
 -0.395
 -0.400
 -0.395
 -0.385
 -0.380
 -0.385
 -0.360
 -0.380
 -0.375
 -0.370
 -0.370
 -0.375
 -0.375
 -0.370
 -0.380
 -0.390
 -0.380
 -0.365
 -0.360
 -0.365
 -0.370
 -0.380
 -0.380
 -0.360
 -0.350
 -0.345
 -0.365
 -0.370
 -0.370
 -0.355
 -0.355
 -0.360
 -0.355
 -0.370
 -0.355
 -0.350
 -0.340
 -0.340
 -0.350
 -0.355
 -0.355
 -0.335
 -0.340
 -0.350
 -0.355
 -0.360
 -0.365
 -0.355
 -0.340
 -0.350
 -0.350
 -0.360
 -0.370
 -0.350
 -0.345
 -0.350
 -0.360
 -0.370
 -0.365
 -0.360
 -0.355
 -0.350
 -0.365
 -0.375
 -0.380
 -0.390
 -0.375
 -0.385
 -0.400
 -0.405
 -0.415
 -0.410
 -0.400
 -0.420
 -0.425
 -0.440
 -0.445
 -0.430
 -0.415
 -0.430
 -0.440
 -0.455
 -0.470
 -0.465
 -0.460
 -0.480
 -0.490
 -0.495
 -0.485
 -0.475
 -0.465
 -0.480
 -0.475
 -0.480
 -0.460
 -0.435
 -0.410
 -0.400
 -0.395
 -0.395
 -0.380
 -0.360
 -0.330
 -0.335
 -0.325
 -0.315
 -0.310
 -0.305
 -0.290
 -0.280
 -0.275
 -0.285
 -0.285
 -0.255
 -0.255
 -0.260
 -0.270
 -0.270
 -0.280
 -0.250
 -0.250
 -0.250
 -0.260
 -0.275
 -0.270
 -0.265
 -0.245
 -0.245
 -0.260
 -0.265
 -0.265
 -0.270
 -0.255
 -0.250
 -0.265
 -0.265
 -0.270
 -0.250
 -0.250
 -0.250
 -0.270
 -0.275
 -0.280
 -0.265
 -0.255
 -0.260
 -0.260
 -0.285
 -0.285
 -0.270
 -0.260
 -0.265
 -0.270
 -0.285
 -0.280
 -0.275
 -0.270
 -0.270
 -0.275
 -0.285
 -0.285
 -0.270
 -0.265
 -0.280
 -0.270
 -0.290
 -0.285
 -0.280
 -0.260
 -0.260
 -0.280
 -0.285
 -0.285
 -0.270
 -0.260
 -0.260
 -0.260
 -0.270
 -0.280
 -0.265
 -0.255
 -0.255
 -0.265
 -0.275
 -0.260
 -0.250
 -0.235
 -0.255
 -0.260
 -0.270
 -0.260
 -0.255
 -0.250
 -0.250
 -0.255
 -0.270
 -0.265
 -0.255
 -0.255
 -0.265
 -0.270
 -0.275
 -0.255
 -0.255
 -0.240
 -0.255
 -0.250
 -0.270
 -0.265
 -0.260
 -0.245
 -0.260
 -0.255
 -0.270
 -0.270
 -0.250
 -0.230
 -0.240
 -0.235
 -0.230
 -0.230
 -0.220
 -0.205
 -0.215
 -0.215
 -0.220
 -0.215
 -0.200
 -0.195
 -0.185
 -0.195
 -0.205
 -0.200
 -0.195
 -0.185
 -0.185
 -0.200
 -0.220
 -0.230
 -0.215
 -0.210
 -0.210
 -0.225
 -0.235
 -0.240
 -0.230
 -0.225
 -0.225
 -0.240
 -0.245
 -0.245
 -0.235
 -0.215
 -0.230
 -0.235
 -0.235
 -0.250
 -0.240
 -0.220
 -0.230
 -0.245
 -0.245
 -0.250
 -0.235
 -0.230
 -0.235
 -0.245
 -0.250
 -0.245
 -0.240
 -0.235
 -0.250
 -0.285
 -0.320
 -0.345
 -0.355
 -0.375
 -0.380
 -0.340
 -0.245
 -0.085
  0.055
  0.185
  0.310
  0.435
  0.570
  0.680
  0.700
  0.535
  0.170
 -0.160
 -0.310
 -0.300
 -0.265
 -0.260
 -0.265
 -0.275
 -0.280
 -0.285
 -0.290
 -0.270
 -0.275
 -0.275
 -0.295
 -0.300
 -0.285
 -0.275
 -0.280
 -0.280
 -0.295
 -0.295
 -0.285
 -0.275
 -0.285
 -0.295
 -0.295
 -0.290
 -0.285
 -0.270
 -0.270
 -0.285
 -0.285
 -0.290
 -0.275
 -0.270
 -0.275
 -0.280
 -0.285
 -0.285
 -0.270
 -0.275
 -0.275
 -0.280
 -0.285
 -0.295
 -0.285
 -0.275
 -0.275
 -0.285
 -0.285
 -0.295
 -0.290
 -0.275
 -0.275
 -0.275
 -0.290
 -0.295
 -0.295
 -0.285
 -0.280
 -0.295
 -0.315
 -0.310
 -0.305
 -0.295
 -0.300
 -0.310
 -0.320
 -0.330
 -0.315
 -0.315
 -0.330
 -0.335
 -0.350
 -0.360
 -0.360
 -0.355
 -0.355
 -0.370
 -0.385
 -0.385
 -0.385
 -0.380
 -0.390
 -0.400
 -0.400
 -0.405
 -0.400
 -0.380
 -0.395
 -0.400
 -0.395
 -0.425
 -0.420
 -0.420
 -0.430
 -0.420
 -0.430
 -0.420
 -0.395
 -0.395
 -0.390
 -0.380
 -0.360
 -0.350
 -0.330
 -0.295
 -0.295
 -0.295
 -0.295
 -0.275
 -0.265
 -0.240
 -0.225
 -0.240
 -0.225
 -0.230
 -0.220
 -0.210
 -0.205
 -0.220
 -0.215
 -0.220
 -0.215
 -0.210
 -0.200
 -0.215
 -0.205
 -0.215
 -0.200
 -0.200
 -0.195
 -0.210
 -0.205
 -0.215
 -0.195
 -0.190
 -0.190
 -0.210
 -0.220
 -0.230
 -0.200
 -0.210
 -0.210
 -0.210
 -0.215
 -0.230
 -0.225
 -0.210
 -0.215
 -0.225
 -0.220
 -0.220
 -0.220
 -0.215
 -0.225
 -0.235
 -0.245
 -0.240
 -0.225
 -0.215
 -0.220
 -0.235
 -0.245
 -0.250
 -0.230
 -0.225
 -0.225
 -0.225
 -0.235
 -0.245
 -0.230
 -0.225
 -0.230
 -0.225
 -0.245
 -0.230
 -0.225
 -0.230
 -0.230
 -0.235
 -0.235
 -0.250
 -0.225
 -0.210
 -0.220
 -0.225
 -0.215
 -0.215
 -0.210
 -0.190
 -0.185
 -0.195
 -0.195
 -0.205
 -0.195
 -0.195
 -0.185
 -0.210
 -0.210
 -0.210
 -0.200
 -0.185
 -0.185
 -0.195
 -0.205
 -0.210
 -0.195
 -0.185
 -0.195
 -0.190
 -0.200
 -0.210
 -0.200
 -0.190
 -0.190
 -0.195
 -0.190
 -0.185
 -0.165
 -0.155
 -0.160
 -0.155
 -0.165
 -0.160
 -0.150
 -0.145
 -0.140
 -0.150
 -0.140
 -0.140
 -0.130
 -0.120
 -0.115
 -0.125
 -0.140
 -0.140
 -0.145
 -0.145
 -0.155
 -0.165
 -0.165
 -0.155
 -0.155
 -0.145
 -0.150
 -0.165
 -0.180
 -0.175
 -0.180
 -0.160
 -0.165
 -0.170
 -0.190
 -0.180
 -0.180
 -0.165
 -0.175
 -0.170
 -0.180
 -0.180
 -0.170
 -0.170
 -0.175
 -0.180
 -0.185
 -0.180
 -0.175
 -0.170
 -0.185
 -0.220
 -0.245
 -0.265
 -0.270
 -0.270
 -0.300
 -0.325
 -0.345
 -0.340
 -0.305
 -0.230
 -0.135
 -0.020
  0.070
  0.175
  0.260
  0.370
  0.490
  0.590
  0.630
  0.580
  0.360
  0.060
 -0.155
 -0.235
 -0.220
 -0.200
 -0.200
 -0.195
 -0.185
 -0.205
 -0.210
 -0.205
 -0.200
 -0.200
 -0.200
 -0.210
 -0.205
 -0.215
 -0.215
 -0.190
 -0.200
 -0.210
 -0.205
 -0.215
 -0.195
 -0.195
 -0.200
 -0.190
 -0.220
 -0.220
 -0.200
 -0.195
 -0.190
 -0.200
 -0.210
 -0.195
 -0.190
 -0.180
 -0.195
 -0.200
 -0.205
 -0.205
 -0.195
 -0.180
 -0.180
 -0.200
 -0.215
 -0.220
 -0.195
 -0.195
 -0.175
 -0.200
 -0.210
 -0.210
 -0.215
 -0.205
 -0.205
 -0.200
 -0.210
 -0.195
 -0.200
 -0.200
 -0.210
 -0.210
 -0.235
 -0.225
 -0.225
 -0.215
 -0.225
 -0.230
 -0.255
 -0.250
 -0.250
 -0.235
 -0.240
 -0.240
 -0.255
 -0.245
 -0.245
 -0.235
 -0.245
 -0.255
 -0.280
 -0.285
 -0.285
 -0.285
 -0.280
 -0.300
 -0.320
 -0.320
 -0.315
 -0.305
 -0.305
 -0.300
 -0.330
 -0.330
 -0.310
 -0.310
 -0.300
 -0.320
 -0.315
 -0.300
 -0.275
 -0.255
 -0.240
 -0.245
 -0.250
 -0.230
 -0.210
 -0.190
 -0.185
 -0.170
 -0.180
 -0.170
 -0.165
 -0.140
 -0.155
 -0.150
 -0.155
 -0.165
 -0.145
 -0.135
 -0.135
 -0.130
 -0.150
 -0.130
 -0.135
 -0.120
 -0.125
 -0.135
 -0.150
 -0.145
 -0.140
 -0.120
 -0.130
 -0.125
 -0.135
 -0.140
 -0.145
 -0.140
 -0.140
 -0.135
 -0.140
 -0.150
 -0.140
 -0.140
 -0.150
 -0.155
 -0.150
 -0.130
 -0.140
 -0.125
 -0.130
 -0.140
 -0.145
 -0.155
 -0.145
 -0.145
 -0.155
 -0.160
 -0.170
 -0.160
 -0.160
 -0.155
 -0.155
 -0.170
 -0.180
 -0.185
 -0.170
 -0.150
 -0.155
 -0.165
 -0.165
 -0.175
 -0.155
 -0.160
 -0.150
 -0.160
 -0.185
 -0.170
 -0.170
 -0.160
 -0.170
 -0.165
 -0.170
 -0.170
 -0.160
 -0.160
 -0.165
 -0.175
 -0.175
 -0.170
 -0.175
 -0.150
 -0.150
 -0.160
 -0.165
 -0.175
 -0.170
 -0.160
 -0.160
 -0.170
 -0.175
 -0.165
 -0.160
 -0.165
 -0.155
 -0.160
 -0.165
 -0.175
 -0.170
 -0.160
 -0.170
 -0.180
 -0.185
 -0.175
 -0.160
 -0.150
 -0.160
 -0.155
 -0.165
 -0.165
 -0.135
 -0.125
 -0.125
 -0.135
 -0.140
 -0.140
 -0.140
 -0.135
 -0.115
 -0.120
 -0.125
 -0.125
 -0.115
 -0.100
 -0.115
 -0.105
 -0.135
 -0.140
 -0.140
 -0.135
 -0.145
 -0.145
 -0.160
 -0.170
 -0.165
 -0.160
 -0.155
 -0.175
 -0.190
 -0.180
 -0.185
 -0.165
 -0.180
 -0.180
 -0.195
 -0.195
 -0.185
 -0.165
 -0.175
 -0.185
 -0.200
 -0.195
 -0.180
 -0.175
 -0.185
 -0.190
 -0.180
 -0.180
 -0.180
 -0.180
 -0.185
 -0.225
 -0.245
 -0.250
 -0.255
 -0.260
 -0.280
 -0.300
 -0.300
 -0.245
 -0.150
 -0.045
  0.025
  0.095
  0.145
  0.240
  0.375
  0.485
  0.510
  0.405
  0.150
 -0.135
 -0.295
 -0.305
 -0.260
 -0.235
 -0.235
 -0.225
 -0.215
 -0.200
 -0.210
 -0.210
 -0.225
 -0.225
 -0.205
 -0.205
 -0.215
 -0.210
 -0.220
 -0.215
 -0.205
 -0.195
 -0.200
 -0.210
 -0.225
 -0.220
 -0.215
 -0.200
 -0.200
 -0.210
 -0.225
 -0.225
 -0.210
 -0.200
 -0.195
 -0.205
 -0.200
 -0.215
 -0.220
 -0.195
 -0.205
 -0.205
 -0.210
 -0.210
 -0.210
 -0.190
 -0.200
 -0.220
 -0.235
 -0.220
 -0.210
 -0.205
 -0.210
 -0.205
 -0.220
 -0.225
 -0.220
 -0.200
 -0.205
 -0.210
 -0.225
 -0.230
 -0.220
 -0.195
 -0.205
 -0.210
 -0.225
 -0.235
 -0.240
 -0.225
 -0.220
 -0.220
 -0.235
 -0.255
 -0.255
 -0.240
 -0.245
 -0.260
 -0.265
 -0.260
 -0.260
 -0.245
 -0.260
 -0.285
 -0.295
 -0.315
 -0.305
 -0.305
 -0.315
 -0.320
 -0.350
 -0.350
 -0.335
 -0.340
 -0.335
 -0.335
 -0.345
 -0.340
 -0.350
 -0.345
 -0.350
 -0.340
 -0.345
 -0.350
 -0.325
 -0.295
 -0.300
 -0.285
 -0.275
 -0.265
 -0.260
 -0.250
 -0.235
 -0.230
 -0.235
 -0.225
 -0.205
 -0.180
 -0.170
 -0.180
 -0.190
 -0.195
 -0.190
 -0.180
 -0.175
 -0.190
 -0.200
 -0.185
 -0.180
 -0.170
 -0.170
 -0.175
 -0.185
 -0.185
 -0.180
 -0.170
 -0.170
 -0.175
 -0.185
 -0.185
 -0.170
 -0.160
 -0.175
 -0.180
 -0.185
 -0.205
 -0.190
 -0.185
 -0.180
 -0.185
 -0.190
 -0.195
 -0.195
 -0.175
 -0.180
 -0.190
 -0.190
 -0.195
 -0.175
 -0.165
 -0.185
 -0.190
 -0.215
 -0.200
 -0.190
 -0.175
 -0.190
 -0.190
 -0.200
 -0.205
 -0.195
 -0.200
 -0.200
 -0.195
 -0.210
 -0.210
 -0.210
 -0.190
 -0.195
 -0.210
 -0.220
 -0.220
 -0.205
 -0.190
 -0.200
 -0.190
 -0.200
 -0.205
 -0.200
 -0.190
 -0.185
 -0.195
 -0.200
 -0.205
 -0.200
 -0.200
 -0.195
 -0.195
 -0.205
 -0.210
 -0.190
 -0.185
 -0.175
 -0.185
 -0.200
 -0.200
 -0.200
 -0.190
 -0.190
 -0.195
 -0.200
 -0.205
 -0.195
 -0.190
 -0.175
 -0.190
 -0.195
 -0.205
 -0.185
 -0.170
 -0.180
 -0.195
 -0.190
 -0.200
 -0.185
 -0.180
 -0.175
 -0.180
 -0.185
 -0.185
 -0.175
 -0.160
 -0.150
 -0.160
 -0.165
 -0.160
 -0.155
 -0.135
 -0.135
 -0.140
 -0.155
 -0.155
 -0.140
 -0.105
 -0.120
 -0.125
 -0.140
 -0.125
 -0.125
 -0.125
 -0.140
 -0.150
 -0.160
 -0.160
 -0.155
 -0.145
 -0.145
 -0.165
 -0.175
 -0.180
 -0.175
 -0.160
 -0.160
 -0.170
 -0.170
 -0.180
 -0.175
 -0.150
 -0.165
 -0.165
 -0.170
 -0.175
 -0.165
 -0.155
 -0.150
 -0.160
 -0.170
 -0.175
 -0.170
 -0.155
 -0.160
 -0.170
 -0.165
 -0.175
 -0.155
 -0.160
 -0.170
 -0.195
 -0.225
 -0.230
 -0.255
 -0.275
 -0.285
 -0.240
 -0.180
 -0.075
  0.045
  0.140
  0.215
  0.305
  0.410
  0.520
  0.615
  0.575
  0.385
  0.080
 -0.170
 -0.275
 -0.255
 -0.205
 -0.195
 -0.185
 -0.185
 -0.170
 -0.165
 -0.155
 -0.155
 -0.155
 -0.170
 -0.170
 -0.170
 -0.160
 -0.160
 -0.160
 -0.165
 -0.180
 -0.165
 -0.150
 -0.150
 -0.165
 -0.170
 -0.165
 -0.150
 -0.160
 -0.140
 -0.145
 -0.160
 -0.155
 -0.160
 -0.150
 -0.140
 -0.130
 -0.135
 -0.140
 -0.135
 -0.135
 -0.135
 -0.140
 -0.150
 -0.140
 -0.135
 -0.125
 -0.130
 -0.145
 -0.140
 -0.145
 -0.145
 -0.130
 -0.125
 -0.135
 -0.145
 -0.140
 -0.135
 -0.135
 -0.145
 -0.150
 -0.155
 -0.150
 -0.145
 -0.140
 -0.135
 -0.130
 -0.145
 -0.155
 -0.155
 -0.145
 -0.160
 -0.160
 -0.160
 -0.170
 -0.160
 -0.160
 -0.160
 -0.170
 -0.190
 -0.195
 -0.190
 -0.195
 -0.190
 -0.205
 -0.225
 -0.235
 -0.225
 -0.225
 -0.230
 -0.245
 -0.260
 -0.260
 -0.270
 -0.265
 -0.265
 -0.280
 -0.290
 -0.290
 -0.290
 -0.280
 -0.280
 -0.285
 -0.295
 -0.285
 -0.280
 -0.260
 -0.245
 -0.245
 -0.240
 -0.240
 -0.220
 -0.190
 -0.175
 -0.175
 -0.165
 -0.160
 -0.135
 -0.120
 -0.125
 -0.120
 -0.120
 -0.125
 -0.110
 -0.105
 -0.090
 -0.100
 -0.095
 -0.100
 -0.090
 -0.075
 -0.080
 -0.085
 -0.100
 -0.095
 -0.085
 -0.070
 -0.075
 -0.080
 -0.085
 -0.095
 -0.090
 -0.090
 -0.085
 -0.080
 -0.095
 -0.100
 -0.095
 -0.085
 -0.090
 -0.090
 -0.115
 -0.105
 -0.105
 -0.090
 -0.100
 -0.100
 -0.110
 -0.125
 -0.110
 -0.110
 -0.095
 -0.100
 -0.115
 -0.125
 -0.110
 -0.110
 -0.110
 -0.105
 -0.110
 -0.120
 -0.115
 -0.105
 -0.105
 -0.110
 -0.120
 -0.125
 -0.110
 -0.115
 -0.115
 -0.125
 -0.130
 -0.125
 -0.120
 -0.120
 -0.115
 -0.115
 -0.130
 -0.135
 -0.120
 -0.110
 -0.110
 -0.110
 -0.130
 -0.135
 -0.125
 -0.125
 -0.125
 -0.120
 -0.120
 -0.125
 -0.125
 -0.105
 -0.105
 -0.120
 -0.130
 -0.125
 -0.115
 -0.095
 -0.100
 -0.115
 -0.135
 -0.135
 -0.110
 -0.095
 -0.105
 -0.095
 -0.110
 -0.110
 -0.105
 -0.105
 -0.100
 -0.105
 -0.105
 -0.115
 -0.105
 -0.090
 -0.100
 -0.110
 -0.120
 -0.120
 -0.115
 -0.105
 -0.115
 -0.110
 -0.125
 -0.120
 -0.125
 -0.105
 -0.100
 -0.100
 -0.105
 -0.105
 -0.090
 -0.075
 -0.070
 -0.085
 -0.085
 -0.095
 -0.085
 -0.065
 -0.070
 -0.065
 -0.070
 -0.065
 -0.045
 -0.060
 -0.055
 -0.045
 -0.055
 -0.055
 -0.055
 -0.065
 -0.080
 -0.070
 -0.090
 -0.090
 -0.075
 -0.085
 -0.085
 -0.095
 -0.110
 -0.115
 -0.100
 -0.090
 -0.100
 -0.115
 -0.115
 -0.120
 -0.110
 -0.105
 -0.100
 -0.110
 -0.115
 -0.120
 -0.125
 -0.115
 -0.110
 -0.125
 -0.125
 -0.125
 -0.120
 -0.120
 -0.140
 -0.175
 -0.205
 -0.235
 -0.245
 -0.255
 -0.270
 -0.255
 -0.200
 -0.090
  0.050
  0.185
  0.275
  0.395
  0.485
  0.605
  0.730
  0.840
  0.850
  0.715
  0.410
  0.075
 -0.150
 -0.170
 -0.150
 -0.150
 -0.170
 -0.170
 -0.155
 -0.150
 -0.160
 -0.170
 -0.185
 -0.190
 -0.175
 -0.170
 -0.170
 -0.180
 -0.180
 -0.185
 -0.185
 -0.165
 -0.170
 -0.180
 -0.175
 -0.190
 -0.180
 -0.170
 -0.160
 -0.180
 -0.170
 -0.185
 -0.175
 -0.170
 -0.175
 -0.170
 -0.180
 -0.180
 -0.170
 -0.170
 -0.160
 -0.175
 -0.180
 -0.190
 -0.170
 -0.165
 -0.165
 -0.170
 -0.190
 -0.195
 -0.185
 -0.185
 -0.180
 -0.185
 -0.185
 -0.195
 -0.180
 -0.175
 -0.195
 -0.190
 -0.210
 -0.215
 -0.225
 -0.210
 -0.195
 -0.210
 -0.225
 -0.225
 -0.225
 -0.215
 -0.230
 -0.225
 -0.250
 -0.255
 -0.255
 -0.260
 -0.255
 -0.270
 -0.285
 -0.285
 -0.285
 -0.285
 -0.295
 -0.320
 -0.340
 -0.330
 -0.320
 -0.325
 -0.330
 -0.335
 -0.350
 -0.365
 -0.355
 -0.350
 -0.345
 -0.340
 -0.345
 -0.340
 -0.335
 -0.325
 -0.310
 -0.290
 -0.285
 -0.280
 -0.245
 -0.240
 -0.220
 -0.220
 -0.220
 -0.230
 -0.205
 -0.175
 -0.165
 -0.165
 -0.170
 -0.175
 -0.160
 -0.155
 -0.140
 -0.155
 -0.160
 -0.155
 -0.140
 -0.125
 -0.130
 -0.135
 -0.145
 -0.150
 -0.150
 -0.135
 -0.135
 -0.130
 -0.140
 -0.145
 -0.135
 -0.140
 -0.135
 -0.135
 -0.155
 -0.150
 -0.140
 -0.140
 -0.145
 -0.140
 -0.150
 -0.155
 -0.150
 -0.140
 -0.140
 -0.155
 -0.160
 -0.160
 -0.160
 -0.160
 -0.145
 -0.160
 -0.160
 -0.175
 -0.170
 -0.160
 -0.175
 -0.160
 -0.180
 -0.180
 -0.160
 -0.150
 -0.165
 -0.175
 -0.175
 -0.190
 -0.165
 -0.160
 -0.160
 -0.160
 -0.170
 -0.185
 -0.170
 -0.160
 -0.155
 -0.160
 -0.175
 -0.170
 -0.170
 -0.170
 -0.170
 -0.165
 -0.165
 -0.180
 -0.170
 -0.160
 -0.160
 -0.155
 -0.165
 -0.160
 -0.155
 -0.150
 -0.160
 -0.155
 -0.165
 -0.165
 -0.160
 -0.135
 -0.135
 -0.150
 -0.160
 -0.160
 -0.155
 -0.145
 -0.145
 -0.145
 -0.150
 -0.165
 -0.150
 -0.145
 -0.140
 -0.145
 -0.155
 -0.160
 -0.145
 -0.145
 -0.145
 -0.140
 -0.135
 -0.130
 -0.125
 -0.105
 -0.105
 -0.115
 -0.110
 -0.125
 -0.115
 -0.090
 -0.100
 -0.080
 -0.095
 -0.100
 -0.090
 -0.090
 -0.070
 -0.075
 -0.095
 -0.120
 -0.115
 -0.100
 -0.105
 -0.120
 -0.120
 -0.130
 -0.130
 -0.120
 -0.135
 -0.135
 -0.140
 -0.145
 -0.140
 -0.130
 -0.135
 -0.140
 -0.150
 -0.155
 -0.165
 -0.150
 -0.140
 -0.145
 -0.145
 -0.165
 -0.150
 -0.150
 -0.155
 -0.160
 -0.165
 -0.165
 -0.160
 -0.145
 -0.165
 -0.170
 -0.210
 -0.230
 -0.255
 -0.275
 -0.300
 -0.285
 -0.215
 -0.100
  0.040
  0.135
  0.245
  0.365
  0.470
  0.565
  0.610
  0.505
  0.200
 -0.105
 -0.250
 -0.240
 -0.195
 -0.180
 -0.180
 -0.195
 -0.200
 -0.205
 -0.185
 -0.180
 -0.175
 -0.190
 -0.185
 -0.190
 -0.190
 -0.175
 -0.175
 -0.180
 -0.190
 -0.200
 -0.195
 -0.190
 -0.195
 -0.185
 -0.200
 -0.190
 -0.195
 -0.195
 -0.185
 -0.195
 -0.200
 -0.195
 -0.180
 -0.180
 -0.180
 -0.180
 -0.190
 -0.200
 -0.200
 -0.185
 -0.185
 -0.180
 -0.200
 -0.205
 -0.200
 -0.185
 -0.180
 -0.180
 -0.200
 -0.205
 -0.205
 -0.195
 -0.195
 -0.210
 -0.220
 -0.220
 -0.215
 -0.210
 -0.225
 -0.215
 -0.230
 -0.230
 -0.230
 -0.220
 -0.220
 -0.230
 -0.240
 -0.240
 -0.245
 -0.235
 -0.250
 -0.245
 -0.265
 -0.280
 -0.275
 -0.265
 -0.280
 -0.290
 -0.305
 -0.315
 -0.315
 -0.315
 -0.320
 -0.330
 -0.345
 -0.350
 -0.345
 -0.340
 -0.335
 -0.330
 -0.340
 -0.340
 -0.345
 -0.315
 -0.300
 -0.290
 -0.290
 -0.285
 -0.270
 -0.250
 -0.230
 -0.220
 -0.225
 -0.230
 -0.215
 -0.200
 -0.195
 -0.205
 -0.200
 -0.205
 -0.190
 -0.175
 -0.170
 -0.170
 -0.195
 -0.200
 -0.200
 -0.180
 -0.170
 -0.175
 -0.190
 -0.200
 -0.200
 -0.195
 -0.185
 -0.195
 -0.205
 -0.220
 -0.195
 -0.195
 -0.190
 -0.195
 -0.205
 -0.215
 -0.225
 -0.210
 -0.210
 -0.205
 -0.235
 -0.220
 -0.215
 -0.200
 -0.210
 -0.205
 -0.225
 -0.230
 -0.225
 -0.225
 -0.220
 -0.220
 -0.220
 -0.225
 -0.220
 -0.215
 -0.220
 -0.230
 -0.240
 -0.245
 -0.235
 -0.215
 -0.230
 -0.230
 -0.240
 -0.245
 -0.240
 -0.225
 -0.220
 -0.215
 -0.230
 -0.235
 -0.230
 -0.235
 -0.230
 -0.235
 -0.245
 -0.240
 -0.240
 -0.220
 -0.215
 -0.230
 -0.240
 -0.245
 -0.240
 -0.230
 -0.240
 -0.230
 -0.230
 -0.240
 -0.240
 -0.235
 -0.225
 -0.220
 -0.245
 -0.250
 -0.245
 -0.245
 -0.230
 -0.230
 -0.240
 -0.245
 -0.245
 -0.230
 -0.225
 -0.230
 -0.250
 -0.250
 -0.225
 -0.215
 -0.195
 -0.190
 -0.200
 -0.220
 -0.205
 -0.200
 -0.200
 -0.190
 -0.205
 -0.210
 -0.200
 -0.190
 -0.185
 -0.195
 -0.205
 -0.205
 -0.210
 -0.185
 -0.190
 -0.210
 -0.225
 -0.230
 -0.235
 -0.240
 -0.235
 -0.230
 -0.245
 -0.250
 -0.245
 -0.240
 -0.240
 -0.240
 -0.255
 -0.260
 -0.250
 -0.245
 -0.250
 -0.265
 -0.275
 -0.265
 -0.260
 -0.250
 -0.250
 -0.250
 -0.260
 -0.265
 -0.265
 -0.255
 -0.255
 -0.255
 -0.280
 -0.290
 -0.315
 -0.330
 -0.355
 -0.375
 -0.390
 -0.340
 -0.230
 -0.110
 -0.030
  0.030
  0.080
  0.190
  0.320
  0.405
  0.385
  0.160
 -0.160
 -0.385
 -0.425
 -0.355
 -0.320
 -0.295
 -0.305
 -0.310
 -0.305
 -0.305
 -0.295
 -0.305
 -0.300
 -0.315
 -0.305
 -0.305
 -0.295
 -0.300
 -0.310
 -0.295
 -0.295
 -0.290
 -0.280
 -0.295
 -0.290
 -0.305
 -0.295
 -0.295
 -0.295
 -0.290
 -0.300
 -0.310
 -0.310
 -0.295
 -0.290
 -0.285
 -0.305
 -0.305
 -0.300
 -0.290
 -0.285
 -0.295
 -0.300
 -0.305
 -0.290
 -0.285
 -0.285
 -0.285
 -0.310
 -0.315
 -0.300
 -0.280
 -0.280
 -0.295
 -0.310
 -0.310
 -0.310
 -0.285
 -0.290
 -0.295
 -0.305
 -0.320
 -0.330
 -0.320
 -0.310
 -0.305
 -0.305
 -0.320
 -0.310
 -0.325
 -0.325
 -0.330
 -0.360
 -0.370
 -0.355
 -0.350
 -0.355
 -0.360
 -0.380
 -0.395
 -0.385
 -0.390
 -0.390
 -0.400
 -0.395
 -0.420
 -0.405
 -0.415
 -0.430
 -0.435
 -0.440
 -0.440
 -0.425
 -0.420
 -0.405
 -0.405
 -0.400
 -0.405
 -0.375
 -0.345
 -0.330
 -0.325
 -0.315
 -0.315
 -0.300
 -0.270
 -0.260
 -0.260
 -0.255
 -0.265
 -0.250
 -0.235
 -0.235
 -0.235
 -0.240
 -0.245
 -0.240
 -0.230
 -0.230
 -0.235
 -0.245
 -0.240
 -0.225
 -0.220
 -0.220
 -0.230
 -0.240